wavelength / nm	10	10	22	22	37	37	60	60	80	80	10 av	22 av	37 av	60 av	80 av
250.00	0.00060890	0.0070731	0.0099553	-0.012743	0.027432	0.0065460	-0.014712	0.010703	-0.0021426	0.013183	0.0038410	-0.0013937	0.016989	-0.0020045	0.0055203
249.00	-0.0031607	-0.00022075	-0.030171	-0.010650	-0.015151	-0.016540	-0.018006	-0.012801	-0.0084430	-0.013248	-0.0016907	-0.020410	-0.015845	-0.015403	-0.010845
248.00	-0.0045450	-0.0091364	-0.056678	-0.041876	-0.049079	-0.050469	-0.039291	-0.051273	-0.030417	-0.036232	-0.0068407	-0.049277	-0.049774	-0.045282	-0.033324
247.00	-0.022800	-0.022551	-0.080046	-0.065727	-0.061881	-0.060774	-0.077219	-0.068669	-0.044460	-0.060296	-0.022675	-0.072886	-0.061328	-0.072944	-0.052378
246.00	-0.042576	-0.044319	-0.10262	-0.094785	-0.10808	-0.10504	-0.089745	-0.10451	-0.043072	-0.072433	-0.043447	-0.098702	-0.10656	-0.097129	-0.057753
245.00	-0.065969	-0.076991	-0.13580	-0.13786	-0.19196	-0.14565	-0.12902	-0.12084	-0.054533	-0.11615	-0.071480	-0.13683	-0.16881	-0.12493	-0.085344
244.00	-0.096129	-0.10707	-0.19339	-0.20805	-0.24594	-0.20012	-0.16916	-0.15490	-0.090990	-0.15131	-0.10160	-0.20072	-0.22303	-0.16203	-0.12115
243.00	-0.13371	-0.14477	-0.27149	-0.27822	-0.32023	-0.28057	-0.23338	-0.21464	-0.091290	-0.17777	-0.13924	-0.27485	-0.30040	-0.22401	-0.13453
242.00	-0.18270	-0.19783	-0.38412	-0.36236	-0.42761	-0.40940	-0.30237	-0.30938	-0.12050	-0.21065	-0.19026	-0.37324	-0.41851	-0.30588	-0.16558
241.00	-0.23720	-0.25487	-0.51868	-0.46832	-0.58493	-0.54750	-0.39846	-0.40255	-0.15732	-0.24648	-0.24604	-0.49350	-0.56622	-0.40051	-0.20190
240.00	-0.30281	-0.33092	-0.70426	-0.64276	-0.74292	-0.72027	-0.50762	-0.51423	-0.20651	-0.30747	-0.31687	-0.67351	-0.73160	-0.51092	-0.25699
239.00	-0.37821	-0.41253	-0.90727	-0.82504	-0.95270	-0.93240	-0.65509	-0.63587	-0.26887	-0.37429	-0.39537	-0.86615	-0.94255	-0.64548	-0.32158
238.00	-0.46574	-0.50815	-1.1682	-1.0451	-1.1979	-1.1842	-0.82109	-0.79475	-0.34593	-0.46663	-0.48694	-1.1066	-1.1911	-0.80792	-0.40628
237.00	-0.55743	-0.61729	-1.4733	-1.3065	-1.4960	-1.4610	-1.0288	-0.96862	-0.44119	-0.56624	-0.58736	-1.3899	-1.4785	-0.99871	-0.50372
236.00	-0.66398	-0.75820	-1.8135	-1.5953	-1.8333	-1.7968	-1.2581	-1.2395	-0.55836	-0.70065	-0.71109	-1.7044	-1.8151	-1.2488	-0.62951
235.00	-0.78035	-0.90446	-2.1769	-1.9145	-2.2293	-2.1668	-1.5218	-1.4947	-0.66480	-0.82998	-0.84241	-2.0457	-2.1981	-1.5082	-0.74739
234.00	-0.92488	-1.0802	-2.5973	-2.2732	-2.6679	-2.5904	-1.7954	-1.7576	-0.79751	-0.96709	-1.0025	-2.4353	-2.6292	-1.7765	-0.88230
233.00	-1.0704	-1.2811	-3.0261	-2.6482	-3.1337	-3.0552	-2.1260	-2.1142	-0.94569	-1.1096	-1.1758	-2.8372	-3.0945	-2.1201	-1.0277
232.00	-1.2407	-1.4960	-3.4873	-3.0636	-3.6446	-3.5558	-2.4421	-2.4112	-1.0838	-1.2993	-1.3683	-3.2754	-3.6002	-2.4267	-1.1916
231.00	-1.4219	-1.7222	-3.9464	-3.5191	-4.1785	-4.0816	-2.8231	-2.7721	-1.2438	-1.4692	-1.5720	-3.7328	-4.1300	-2.7976	-1.3565
230.00	-1.6053	-1.9536	-4.4594	-3.9807	-4.6955	-4.6136	-3.1870	-3.1615	-1.4036	-1.6564	-1.7794	-4.2200	-4.6546	-3.1742	-1.5300
229.00	-1.7925	-2.2011	-4.9742	-4.4855	-5.2874	-5.1697	-3.5366	-3.5490	-1.5758	-1.8567	-1.9968	-4.7298	-5.2286	-3.5428	-1.7163
228.00	-1.9890	-2.4427	-5.5065	-4.9715	-5.8552	-5.7274	-3.9520	-3.9584	-1.7544	-2.0831	-2.2158	-5.2390	-5.7913	-3.9552	-1.9188
227.00	-2.1814	-2.6989	-6.0303	-5.4412	-6.4665	-6.3117	-4.2985	-4.3380	-1.9654	-2.3132	-2.4401	-5.7358	-6.3891	-4.3183	-2.1393
226.00	-2.3709	-2.9600	-6.5194	-5.8976	-7.0489	-6.8526	-4.6593	-4.7217	-2.1616	-2.5133	-2.6655	-6.2085	-6.9508	-4.6905	-2.3375
225.00	-2.5715	-3.2194	-7.0352	-6.3358	-7.6196	-7.4103	-5.0501	-5.0717	-2.3586	-2.6823	-2.8954	-6.6855	-7.5149	-5.0609	-2.5205
224.00	-2.7626	-3.4547	-7.4483	-6.6932	-8.1268	-7.8915	-5.4167	-5.3819	-2.5337	-2.8520	-3.1086	-7.0708	-8.0092	-5.3993	-2.6929
223.00	-2.9430	-3.6746	-7.8815	-7.0413	-8.6380	-8.3634	-5.7500	-5.6483	-2.6942	-3.0257	-3.3088	-7.4614	-8.5007	-5.6992	-2.8599
222.00	-3.0951	-3.8761	-8.1968	-7.3554	-9.1153	-8.8002	-6.0476	-5.9253	-2.8197	-3.1876	-3.4856	-7.7761	-8.9577	-5.9865	-3.0036
221.00	-3.2357	-4.0441	-8.4880	-7.6227	-9.4839	-9.1880	-6.3451	-6.1937	-2.9705	-3.3256	-3.6399	-8.0553	-9.3359	-6.2694	-3.1481
220.00	-3.3476	-4.1887	-8.7564	-7.8447	-9.7169	-9.4504	-6.5401	-6.3474	-3.0693	-3.4772	-3.7682	-8.3005	-9.5837	-6.4438	-3.2733
219.00	-3.4071	-4.2870	-8.9057	-8.0176	-9.9227	-9.6706	-6.7028	-6.5354	-3.1641	-3.6035	-3.8471	-8.4617	-9.7966	-6.6191	-3.3838
218.00	-3.4682	-4.3449	-8.9940	-8.1279	-10.007	-9.7507	-6.8206	-6.6960	-3.2410	-3.6654	-3.9066	-8.5610	-9.8786	-6.7583	-3.4532
217.00	-3.4773	-4.3532	-8.9253	-8.1022	-9.9485	-9.7734	-6.8841	-6.8077	-3.2881	-3.6520	-3.9152	-8.5137	-9.8609	-6.8459	-3.4700
216.00	-3.4345	-4.3059	-8.7889	-7.9372	-9.8036	-9.6086	-6.8385	-6.7470	-3.3128	-3.6240	-3.8702	-8.3631	-9.7061	-6.7927	-3.4684
215.00	-3.3950	-4.2043	-8.5572	-7.7121	-9.6320	-9.3771	-6.8659	-6.7512	-3.3359	-3.6134	-3.7996	-8.1346	-9.5046	-6.8085	-3.4747
214.00	-3.2740	-4.0627	-8.1876	-7.3452	-9.3676	-9.0602	-6.7336	-6.6002	-3.2913	-3.5351	-3.6683	-7.7664	-9.2139	-6.6669	-3.4132
213.00	-3.0893	-3.8638	-7.7345	-6.9065	-8.9535	-8.6736	-6.5871	-6.4347	-3.2376	-3.4781	-3.4766	-7.3205	-8.8135	-6.5109	-3.3578
212.00	-2.8794	-3.6051	-7.1759	-6.3938	-8.4097	-8.1767	-6.3521	-6.1817	-3.1812	-3.4002	-3.2423	-6.7848	-8.2932	-6.2669	-3.2907
211.00	-2.6214	-3.2969	-6.5951	-5.8465	-7.8384	-7.6068	-6.0733	-5.9433	-3.1162	-3.3166	-2.9591	-6.2208	-7.7226	-6.0083	-3.2164
210.00	-2.2680	-2.9185	-5.8904	-5.1853	-7.1928	-6.9309	-5.6909	-5.6507	-2.9680	-3.1767	-2.5932	-5.5379	-7.0618	-5.6708	-3.0724
209.00	-1.9025	-2.5109	-5.0319	-4.4550	-6.3466	-6.1741	-5.2543	-5.2627	-2.8286	-3.0738	-2.2067	-4.7435	-6.2604	-5.2585	-2.9512
208.00	-1.4714	-2.0155	-4.0477	-3.5794	-5.4341	-5.3872	-4.7150	-4.7382	-2.6928	-2.9121	-1.7434	-3.8136	-5.4107	-4.7266	-2.8025
207.00	-0.99625	-1.4624	-3.0351	-2.6552	-4.4240	-4.3413	-4.1789	-4.2040	-2.4356	-2.6794	-1.2293	-2.8451	-4.3827	-4.1915	-2.5575
206.00	-0.47196	-0.81522	-1.8272	-1.5679	-3.2599	-3.2406	-3.4753	-3.5552	-2.2133	-2.3793	-0.64359	-1.6976	-3.2502	-3.5153	-2.2963
205.00	0.11505	-0.074068	-0.54302	-0.34628	-1.8909	-1.9047	-2.7952	-2.8621	-1.9460	-2.0541	0.020492	-0.44465	-1.8978	-2.8286	-2.0000
204.00	0.76659	0.74395	0.98607	1.0612	-0.39415	-0.46045	-1.7979	-1.9825	-1.6105	-1.6437	0.75527	1.0236	-0.42730	-1.8902	-1.6271
203.00	1.4151	1.5840	2.3543	2.3830	1.3376	1.2070	-0.86285	-1.0644	-1.2335	-1.2336	1.4995	2.3686	1.2723	-0.96363	-1.2335
202.00	2.0655	2.4163	3.8238	3.7394	3.2325	2.9615	0.051243	-0.18838	-0.89526	-0.86522	2.2409	3.7816	3.0970	-0.068568	-0.88024
201.00	2.6880	3.2158	5.2412	5.1144	5.0021	4.8239	1.0240	0.74597	-0.44644	-0.45963	2.9519	5.1778	4.9130	0.88497	-0.45304
200.00	3.2741	4.0265	6.7448	6.3938	6.8865	6.5431	2.0662	1.6767	-0.13047	-0.085430	3.6503	6.5693	6.7148	1.8714	-0.10795
199.00	3.8324	4.7070	7.9861	7.4841	8.7651	8.2590	3.0000	2.5142	0.13320	0.20433	4.2697	7.7351	8.5120	2.7571	0.16877
198.00	4.3118	5.4221	9.2030	8.4631	10.226	9.6303	3.7277	3.1790	0.39076	0.51124	4.8670	8.8331	9.9282	3.4533	0.45100
197.00	4.7371	5.9244	10.172	9.4197	11.629	10.873	4.6759	4.0420	0.64933	0.74623	5.3307	9.7957	11.251	4.3589	0.69778
196.00	5.0734	6.3912	11.043	10.189	12.666	11.960	5.3625	4.6675	0.83682	0.97103	5.7323	10.616	12.313	5.0150	0.90392
195.00	5.3717	6.6702	11.506	10.640	13.280	12.397	5.6160	4.9957	1.1135	1.0997	6.0209	11.073	12.838	5.3058	1.1066
194.00	5.5324	6.8169	11.715	10.996	13.615	12.704	5.7835	5.1421	1.3031	1.2044	6.1746	11.355	13.159	5.4628	1.2538
193.00	5.5678	6.7858	11.817	11.167	13.566	12.907	5.6788	5.3552	1.3757	1.3202	6.1768	11.492	13.236	5.5170	1.3480
192.00	5.4560	6.6174	11.626	10.854	13.101	12.710	5.3908	4.9895	1.4553	1.3473	6.0367	11.240	12.905	5.1901	1.4013
191.00	5.1532	6.1805	11.236	10.376	12.520	12.316	5.0263	4.6317	1.4196	1.3953	5.6669	10.806	12.418	4.8290	1.4074
190.00	4.7408	5.7707	10.752	9.9593	11.638	11.624	4.7385	4.2952	1.2648	1.3461	5.2557	10.356	11.631	4.5169	1.3055
189.00	4.2286	5.2403	9.7291	8.9126	10.743	10.591	4.2526	3.6932	1.0828	1.2388	4.7345	9.3209	10.667	3.9729	1.1608
188.00	3.5287	4.6163	8.2727	7.6682	9.1853	9.2085	3.6129	2.8668	0.83709	0.97348	4.0725	7.9705	9.1969	3.2399	0.90528
187.00	2.8349	3.7769	6.6894	6.3638	7.9139	7.7207	2.9375	2.2433	0.67707	0.75245	3.3059	6.5266	7.8173	2.5904	0.71476
186.00	2.2535	3.0190	5.0124	4.9826	5.9883	6.0997	1.9149	1.5608	0.67318	0.52941	2.6363	4.9975	6.0440	1.7379	0.60129
185.00	1.5788	2.0347	3.6523	3.5883	3.7592	3.9553	1.1318	0.75307	0.35173	0.10997	1.8068	3.6203	3.8572	0.94245	0.23085
